#V_bias (V)   V_buio (milliV)   Ch   err_Ch   FWHM  err_FWHM   FWHM/ch*e-3  err_FWHM/ch*e-3
15.02 139 4833.1856 0.0709 16.7614 0.1183 3.4680 0.0245
17.83 143 4833.5076 0.0725 17.1129 0.1209 3.5405 0.0251
20.44 150 4833.7432 0.0781 18.4588 0.1304 3.8187 0.0270
23.13 158 4833.4199 0.0613 14.4777 0.1022 2.9953 0.0212
26.75 168 4833.7037 0.0716 16.9317 0.1196 3.5028 0.0248
30.38 178 4833.9658 0.0790 18.6690 0.1318 3.8620 0.0273
34.12 188 4834.0733 0.0835 19.7405 0.1395 4.0836 0.0289 
38.95 199 4833.6240 0.0707 16.7012 0.1180 3.4552 0.0245
41.76 207 4834.0347 0.0759 17.9419 0.1267 3.7116 0.0263
44.15 213 4834.2724 0.0843 19.9305 0.1409 4.1228 0.0292
48.46 224 4834.2207 0.0820 19.3723 0.1368 4.0073 0.0288
52.46 233 4834.3514 0.0862 20.3678 0.1440 4.2131 0.0299
57.23 241 4834.2056 0.0838 19.8040 0.1399 4.0966 0.0290
62.30 252 4834.3483 0.0854 20.1841 0.1427 4.1751 0.0296
66.70 261 4834.3277 0.0847 20.0214 0.1414 4.1415 0.0293
71.50 270 4834.3462 0.0834 19.7063 0.1393 4.0763 0.0289
